t,theta,theta_dot,KE,PE,E,E_minus_E0
0.0,0.1,0.0,0.0,0.0490091386225667,0.0490091386225667,0.0
0.005,0.099987758176252,-0.004896629932622986,1.1988492348529696e-05,0.04899715013024891,0.04900913862259744,3.073929999430902e-14
0.01,0.09995103569307948,-0.009792065023758232,4.7942268714754654e-05,0.04896119635512503,0.049009138623839786,1.273085803443763e-12
0.015,0.0998898415592056,-0.01468511231658814,0.00010782626187540433,0.0489013124356199,0.0490091386974953,7.492859804836272e-11
0.02,0.099804190704225,-0.0195745768295965,0.00019158202902888805,0.04881755681724318,0.04900913884627207,2.2370536673088637e-10
0.025,0.0996941039861834,-0.024459263828008684,0.00029912779350406703,0.04871001120718474,0.0490091390006888,3.7812210307297534e-10
0.03,0.0995596082290443,-0.029337980698353538,0.00043035855572848237,0.04857878053705329,0.049009139092781775,4.702150752100565e-10
0.035,0.09940073622268879,-0.034209536948463404,0.0005851462091141414,0.04842399286783691,0.04900913907695106,4.54384356529669e-10
0.04,0.09921752672291564,-0.03907274420747407,0.0007633396699513493,0.04824579927383236,0.049009138943783705,3.212170043842555e-10
0.045,0.09901002445144133,-0.0439264162258248,0.0009647650212222021,0.048044373705608726,0.04900913872683093,1.0426422919485034e-10
0.05,0.09877828009589995,-0.04876936887525837,0.00118922567024551,0.047819912832072896,0.0490091385023184,-1.2024829743051413e-10
0.055,0.0985223503098433,-0.05360042014882099,0.0014365025200650677,0.047572635861718414,0.04900913838178348,-2.4078321975151695e-10
0.06,0.09824229756032053,-0.058418392846664474,0.0017063543113936095,0.04730278419649931,0.04900913850789292,-1.1467377741825047e-10
0.065,0.09793819012639197,-0.06322211141096137,0.0019985176856300063,0.04701062121257866,0.04900913889820867,2.756419675842281e-10
0.07,0.09761010229770158,-0.06801039942900743,0.002312707215246567,0.0466964322124167,0.049009139427663266,8.050965658035203e-10
0.075,0.09725811415461366,-0.07278208559185483,0.002648615991550041,0.04636052395432277,0.04900913994587281,1.3233061105233368e-09
0.08,0.09688231156626914,-0.0775360037379706,0.003005915937827295,0.046003224373250585,0.04900914031107788,1.6885111780995388e-09
0.085,0.09648278619058548,-0.08227099285323655,0.0033842581325286497,0.0456248822839976,0.04900914041652625,1.7939595503557726e-09
0.09,0.09605963547425671,-0.08698589707094928,0.0037832731446188913,0.04522586706509734,0.04900914020971623,1.5871495298580562e-09
0.095,0.0956129626527534,-0.09167956567182017,0.004202571380886794,0.044806568323559406,0.0490091397044462,1.0818795026512618e-09
0.1,0.09514287675032272,-0.09635085308397545,0.004641743445004911,0.04436739554065106,0.049009138985655974,3.630892739248104e-10
0.105,0.09464949257998838,-0.10099861888295608,0.005100360508132306,0.04390877769888914,0.04900913820702144,-4.155452579257535e-10
0.11,0.09413293074355064,-0.10562172779171781,0.0055779746908538675,0.043431162890456815,0.04900913758131068,-1.0412560189076991e-09
0.115,0.09359331762202469,-0.11021904975370146,0.006074119464304459,0.042935017898488095,0.049009137362792554,-1.2597741461117806e-09
0.12,0.09303078454718074,-0.11478946530488669,0.006588310672490893,0.04242082701423688,0.049009137686727766,-9.35838934124078e-10
0.125,0.0924454688206432,-0.11933185575829727,0.007120045899359533,0.04188909253793792,0.049009138437297456,-1.8526924439044024e-10
0.13,0.09183751370112539,-0.12384510587170874,0.007668805124187374,0.041340334300131426,0.0490091394243188,8.017521022085639e-10
0.135,0.09120706781158817,-0.12832810899340924,0.008234051778912161,0.04077508864712981,0.04900914042604197,1.8034752718998348e-09
0.14,0.09055428513923981,-0.13277976706219954,0.008815233270545985,0.04019390795736609,0.04900914122791208,2.6053453769381285e-09
0.145,0.0898793250355361,-0.13719899060739305,0.009411781511843763,0.03959736014223962,0.049009141654083384,3.031516683515978e-09
0.15,0.08918235221618026,-0.14158469874881582,0.010023113459896465,0.03898602813171622,0.04900914159161268,2.969045981293661e-09
0.155,0.088463536761123,-0.14593581919680654,0.010648631662321504,0.038360509344971275,0.04900914100729278,2.384726076332111e-09
0.16,0.0877230541145625,-0.15025128825221645,0.01128772481072532,0.037721415146338345,0.049009139957063665,1.334496964322529e-09
0.165,0.0869610850849444,-0.15453005080640952,0.011939768301115754,0.03706937028688339,0.04900913858799914,-3.456755715003368e-11
0.17,0.08617781584496184,-0.15877106034126234,0.012604124800944383,0.03640501233189119,0.04900913713283557,-1.489731130122074e-09
0.17500000000000002,0.08537343793155541,-0.16297327892916405,0.013280144822461554,0.035728991074587296,0.04900913589704885,-2.7255178530749546e-09
0.18,0.0845481482459132,-0.16713567723301648,0.013967167302069532,0.035041967936420185,0.049009135238489716,-3.384076983914408e-09
0.185,0.08370214823896839,-0.17125723777993837,0.014664520746007175,0.034344614686215254,0.04900913543222243,-3.1903442734848575e-09
0.19,0.08283564366670233,-0.17533695375778163,0.015371523676529227,0.0336376126504781,0.049009136327007326,-2.2955593745321856e-09
0.195,0.08194884709771331,-0.1793738194958205,0.0160874835602596,0.032921654136565594,0.04900913769682519,-9.257415112262635e-10
0.2,0.08104197583324989,-0.18336684101702191,0.016811699192280895,0.032197440070329604,0.049009139262610496,6.400437957410077e-10
0.20500000000000002,0.08011525182033706,-0.18731503643129166,0.01754346143662806,0.031465679295617714,0.04900914073224577,2.1096790703278856e-09
0.21,0.07916890165177635,-0.19121743593547433,0.018282053902868616,0.030727087936547975,0.04900914183941659,3.2168498906304244e-09
0.215,0.07820315656614568,-0.19507308181335345,0.019026753624079643,0.02998238875090841,0.04900914237498805,3.75242135280951e-09
0.22,0.07721825244779949,-0.1988810284356514,0.019776831735811188,0.029232310475039526,0.04900914221085072,3.5882840171419517e-09
0.225,0.07621442982686867,-0.20264034226002936,0.020531554155630922,0.028477587160565757,0.04900914131619668,2.6936299787894136e-09
0.23,0.07519193387926058,-0.20635010183108737,0.021290182262850066,0.027718957503321144,0.04900913976617121,1.1436045097013015e-09
0.23500000000000001,0.07415101442665906,-0.21000939778036443,0.022051973578035667,0.026957164164875466,0.04900913774291113,-8.796555706069853e-10
0.24,0.07309192593652439,-0.2136173328263382,0.022816182441919276,0.02619295308701263,0.04900913552893191,-3.0936347927834618e-09
0.245,0.07201492752209336,-0.21717302177442543,0.02358206069331753,0.025427072799580595,0.04900913349289812,-5.129668578796043e-09
0.25,0.07092028294237918,-0.22067559151698157,0.024348858345684853,0.024660273722091914,0.04900913206777677,-6.5547899330553605e-09
0.255,0.06980826047571465,-0.22412418136484408,0.02511582433623076,0.0238933073729683,0.04900913170919906,-6.913367642247259e-09
0.26,0.06867913022166748,-0.22751794906813175,0.025882208574084496,0.023126923850500105,0.0490091324245846,-6.197982099775956e-09
0.265,0.06753316871839582,-0.2308560572821677,0.026647259591933748,0.022361874333503437,0.04900913392543718,-4.697129518671517e-09
0.27,0.06637065758843953,-0.2341376796659109,0.027410226519668353,0.02159890938386394,0.04900913590353229,-2.719034407350218e-09
0.275,0.06519188207519877,-0.2373620051480138,0.028170360743942868,0.0208387772644046,0.04900913800834747,-6.142192310321093e-10
0.28,0.06399713104293402,-0.24052823792682237,0.028926916620091038,0.020082223272879163,0.049009139892970205,1.2704035046162687e-09
0.28500000000000003,0.06278669697676609,-0.243635597470376,0.029679152177373543,0.019329989075100713,0.049009141252474256,2.629907555617983e-09
0.29,0.061560875982676094,-0.24668331851640757,0.030426329817133696,0.018582812037561704,0.049009141854695404,3.232128703567483e-09
0.295,0.060319967787505466,-0.2496706510723435,0.03116771700344395,0.017841424559918904,0.049009141563362855,2.9407961552041506e-09
0.3,0.059064275738955965,-0.25259686041530366,0.0319025869458342,0.017106553407709224,0.04900914035354342,1.7309767230688777e-09
0.305,0.05779410680558966,-0.2554612270921013,0.03263021927370107,0.01637891904569181,0.04900913831939288,-3.0317381938260723e-10
0.31,0.056509771576828946,-0.2582630469192432,0.0333499007020056,0.01565923497218235,0.04900913567418795,-2.9483787494788416e-09
0.315,0.05521158426295651,-0.2610016309829297,0.03406092568787471,0.014948207054787952,0.04900913274266266,-5.879904042827011e-09
0.32,0.0538998626951154,-0.26367630563905453,0.03476259707773005,0.014246532867921711,0.049009129945651764,-8.676914936556201e-09
0.325,0.052574928325308946,-0.26628641251320484,0.03545422674457635,0.013554901032516196,0.04900912777709254,-1.0845474157639146e-08
0.33,0.051237106226400805,-0.26883130850066145,0.0361351362150889,0.012873990558327974,0.04900912677341688,-1.1849149821052674e-08
0.335,0.049886722980241174,-0.27131036841611444,0.03680465800504387,0.012204469156153952,0.049009127161197825,-1.1461368874809974e-08
0.34,0.04852410774648691,-0.2737229814035645,0.03746213527422806,0.011546993236132322,0.04900912851036038,-1.0112206322299144e-08
0.34500000000000003,0.04714959613575129,-0.27606854726240665,0.038106921393787824,0.010902209123872488,0.049009130517660315,-8.10490638492034e-09
0.35000000000000003,0.04576352615184911,-0.27834648341355167,0.038738382414345296,0.010270750407587834,0.04900913282193313,-5.8006335706961565e-09
0.355,0.044366238134628665,-0.2805562249846136,0.03935589768880855,0.009653237359046248,0.0490091350478548,-3.574711901488392e-09
0.36,0.0429580747599717,-0.28269722480990966,0.0399588604576123,0.009050276390419418,0.04900913684803172,-1.7745349772946284e-09
0.365,0.04153938103979349,-0.28476895343046066,0.040546678418939934,0.008462459518635133,0.04900913793757507,-6.849916328599548e-10
0.37,0.040110504322042786,-0.28677089909399045,0.041118774283587824,0.007890363837491815,0.04900913812107964,-5.014870602115806e-10
0.375,0.038671794290701826,-0.28870256775492636,0.041674586314143926,0.007334550997851101,0.04900913731199503,-1.3105716720196448e-09
0.38,0.037223602965786334,-0.29056348307439894,0.04221356884816326,0.006795566696202576,0.04900913554436584,-3.0782008608731815e-09
0.385,0.03576628470334552,-0.29235318642024205,0.0427351928050344,0.006273940171880537,0.049009132976914935,-5.645651765529003e-09
0.39,0.03430019619546211,-0.29407123686699294,0.043238946176241536,0.00577018371325518,0.04900912988949672,-8.733069982447272e-09
0.395,0.032825696470252276,-0.29571721119589206,0.043724334498737916,0.005284792173184644,0.04900912667192256,-1.1950644140945599e-08
0.4,0.03134314689186571,-0.2972907038948833,0.044190881311157594,0.004818242494041596,0.04900912380519919,-1.4817367513519919e-08
0.405,0.029852911160485582,-0.29879132715861373,0.04463812859260287,0.004370993242609492,0.04900912183521236,-1.6787354339964367e-08
0.41000000000000003,0.028355355174041003,-0.300218710934052,0.045065637197451935,0.003943484116702878,0.049009121314154816,-1.7308411884298103e-08
0.41500000000000004,0.0268508436727917,-0.301572503101111,0.0454729873133348,0.0035361346272115624,0.049009121940546366,-1.6682020334557457e-08
0.42,0.02533974599069696,-0.30285236641336927,0.04585977792108884,0.0031493453529653917,0.04900912327405423,-1.5348512467927566e-08
0.425,0.023822434350373484,-0.3040579815771263,0.04622562808037804,0.0027834969540543645,0.04900912503443241,-1.3588134291364629e-08
0.43,0.022299281899404187,-0.30518904832455296,0.04657017760862316,0.0024389492905938373,0.049009126899217,-1.1723349700731855e-08
0.435,0.020770662710338145,-0.30624528541369167,0.046893087419056734,0.0021160411294156066,0.04900912854847234,-1.0074094357326313e-08
0.44,0.019236951780690573,-0.3072264306284562,0.04719403983835081,0.0018150898638209145,0.04900912970217173,-8.92039497130126e-09
0.445,0.017698525032942884,-0.3081322407786319,0.047472738903630386,0.001536391246538048,0.04900913015016843,-8.472398269065984e-09
0.45,0.016155759314542627,-0.3089624916998754,0.04772891063869778,0.0012802191359967208,0.0490091297746945,-8.847872198791684e-09
0.455,0.014609032397903537,-0.30971697825371475,0.04796230330930601,0.0010468252560727966,0.049009128565378805,-1.0057187894985109e-08
0.46,0.013058722980405498,-0.31039551432754964,0.048172687657332035,0.0008364389694231623,0.049009126626755196,-1.1995811503850984e-08
0.465,0.011505210684394578,-0.31099793283465105,0.04835985711371306,0.0006492670645392685,0.04900912417825233,-1.4444314369588263e-08
0.47000000000000003,0.009948876057182986,-0.31152408571416146,0.048523627990022106,0.00048549355666201003,0.04900912154668412,-1.7075882582928692e-08
0.47500000000000003,0.008390100571049115,-0.31197384393109473,0.04866383964857152,0.0003452795026723088,0.049009119151243834,-1.9471322866559948e-08
0.48,0.0068292666232375315,-0.31234709747633616,0.04878035465094592,0.00022876283010225042,0.04900911748104817,-2.1141518528888792e-08
0.485,0.005266757426756238,-0.3126437552919364,0.0488730588615221,0.0001360581747438039,0.049009117036265905,-2.1586300795461977e-08
0.49,0.0037029545702758175,-0.31286374278094126,0.04894186077344949,6.725665800366931e-05,0.049009117431453156,-2.119111354448311e-08
0.495,0.0021382422208144503,-0.3130070038185354,0.048986692219728324,2.242604284909411e-05,0.049009118262577415,-2.0359989284790547e-08
0.5,0.000573005559049722,-0.3130735020629346,0.04900750884697516,1.6104849495690577e-06,0.04900911933192473,-1.929064197270236e-08
0.505,-0.0009923706664017855,-0.31306322034774614,0.04900428996725072,4.830441344666481e-06,0.04900912040859539,-1.8213971310354626e-08
0.51,-0.0025575021389845094,-0.31297616068196843,0.04897703857761266,3.208269083362026e-05,0.04900912126844628,-1.7354120418477947e-08
0.515,-0.0041220049742038845,-0.3128123442499912,0.0489257813575875,8.334036915854215e-05,0.04900912172674605,-1.689582065228512e-08
0.52,-0.005685495719626369,-0.3125718114115956,0.04885056864456305,0.00015855301893879847,0.04900912166350185,-1.6959064846888694e-08
0.525,-0.007247591354879427,-0.312254621701954,0.048751474387115204,0.00025764665429446664,0.04900912104140967,-1.7581157030210903e-08
0.53,-0.008807909291651527,-0.31186085383163,0.04862859607629664,0.00038052384009788055,0.04900911991639452,-1.8706172180693592e-08
0.535,-0.010366067373692146,-0.3113906056865785,0.04848205465492711,0.0005270637857868277,0.049009118440713935,-2.0181852765366326e-08
0.54,-0.011921683876811796,-0.31084399432814586,0.048311994404938184,0.0006971224536871201,0.0490091168586253,-2.176394139907778e-08
0.545,-0.013474377508881967,-0.31022115599306954,0.04811858281283819,0.000890532681783548,0.04900911549462174,-2.3127944961953695e-08
0.55,-0.01502376740983518,-0.3095222460934784,0.0479020104133759,0.0011071043208662435,0.04900911473424214,-2.388832456151624e-08
0.555,-0.0165694738410057,-0.30874743813548333,0.04766249027761205,0.0013466244980345,0.04900911477564655,-2.3846920146897155e-08
0.56,-0.018111118469353805,-0.30789692201290864,0.04740025729251157,0.001608857885034144,0.04900911517754571,-2.3445020987111764e-08
0.5650000000000001,-0.019648321984341924,-0.30697090840631314,0.04711556930389854,0.0018935464919264434,0.04900911579582498,-2.2826741719050858e-08
0.5700000000000001,-0.02118070657664975,-0.30596962659856175,0.046808706200431656,0.002200410269366524,0.04900911646979818,-2.215276852235437e-08
0.5750000000000001,-0.022707896075652222,-0.30489332430499294,0.0464799696028748,0.0025291474271484904,0.049009117030023294,-2.1592543406057096e-08
0.58,-0.02422951594941949,-0.3037422676734184,0.046129682585695275,0.00287943474546972,0.049009117331164996,-2.1291401704204294e-08
0.585,-0.025745193304717064,-0.30251674128412326,0.04575818937858258,0.0032509278989553904,0.04900911727753797,-2.134502873063493e-08
0.59,-0.027254556887005593,-0.301217048149866,0.045365855048059345,0.003643261793198185,0.04900911684125753,-2.1781309172963503e-08
0.595,-0.02875723708044101,-0.2998435097158784,0.04495306515936804,0.004056050913613868,0.04900911607298191,-2.2549584789699484e-08
0.6,-0.030252865907874495,-0.29839646585986573,0.04452022541882901,0.004488889686364406,0.049009115105193415,-2.351737328487591e-08
0.605,-0.03174107703085248,-0.2968762748920065,0.04406776129687711,0.004941352851149324,0.04900911414802643,-2.447454026943685e-08
0.61,-0.033221505749616645,-0.2952833135549526,0.04359611763199622,0.00541299584562025,0.049009113477616474,-2.5144950226152485e-08
0.615,-0.034693789305315734,-0.29361797658415073,0.043105758086685445,0.0059033553040461475,0.04900911339073159,-2.523183510738658e-08
0.62,-0.036157568502485464,-0.2918806735765616,0.042597163803753654,0.006411950061390952,0.04900911386514461,-2.475742209157028e-08
0.625,-0.037612483358229136,-0.2900718347525257,0.04207083465834828,0.006938280103316091,0.04900911476166437,-2.3860902330363754e-08
0.63,-0.039058175926301085,-0.2881919082351675,0.041527287986113604,0.007481827902757149,0.049009115888870754,-2.273369594657515e-08
0.635,-0.04049429106790401,-0.28624135907238657,0.040967057821803474,0.008042059193404625,0.0490091170152081,-2.160735860373686e-08
0.64,-0.04192047645168899,-0.28422066923685757,0.0403906944107236,0.00861842350069124,0.04900911791141484,-2.071115186297323e-08
0.645,-0.04333638255375548,-0.28213033762602996,0.03979876370448883,0.00921035468105663,0.04900911838554546,-2.023702123932214e-08
0.65,-0.0447416626576513,-0.2799708800621284,0.03919184684138134,0.009817271469172486,0.04900911831055383,-2.0312012870282725e-08
0.655,-0.04613597285437265,-0.2777428292921525,0.03857053961160488,0.010438578032731686,0.04900911764433656,-2.09782301391348e-08
0.66,-0.047518972042364105,-0.2754467349878768,0.037935451907740815,0.011073664534479045,0.04900911644221986,-2.218034683698633e-08
0.665,-0.04889032192751861,-0.2730831637458509,0.037287207160721605,0.01172190770112754,0.04900911486184915,-2.3760717553222843e-08
0.67,-0.05024968702317747,-0.2706526990873995,0.036626441761647206,0.012382671398809312,0.049009113160456516,-2.5462110184171216e-08
0.675,-0.051596734650130385,-0.26815594145862215,0.03595380446977999,0.013055307214723795,0.04900911168450379,-2.693806291226286e-08
0.68,-0.05293113493661541,-0.2655935082303935,0.03526995580706405,0.013739155044641026,0.049009110851705076,-2.777086162419895e-08
0.685,-0.05425256175131553,-0.26296603123463075,0.034575566791646396,0.014433544182249331,0.04900911097389573,-2.7648670970770173e-08
0.6900000000000001,-0.0555606928371504,-0.26027415455429237,0.033871317764475835,0.01513779405002284,0.04900911181449867,-2.6808068029349208e-08
0.6950000000000001,-0.05685520607491846,-0.2575185445940411,0.03315790040491657,0.015851212785851415,0.049009113190767985,-2.543179871555834e-08
0.7000000000000001,-0.058135783075604144,-0.25469988268941274,0.032436015121000306,0.016573099728048102,0.04900911484904841,-2.3773518292857787e-08
0.705,-0.05940210939235743,-0.2518188646109176,0.03170637028696583,0.017302746208691207,0.049009116495657035,-2.21269096656318e-08
0.71,-0.0606538745204939,-0.2488762005640403,0.030969681603596207,0.018039436238453263,0.04900911784204947,-2.0780517230589712e-08
0.715,-0.061890771897494576,-0.24587261518924017,0.030226671449998087,0.01878244719249292,0.04900911864249101,-1.9980075691150567e-08
0.72,-0.06311249890300605,-0.24280884756195084,0.02947806822718134,0.019531050496989475,0.04900911872417081,-1.9898395889339504e-08
0.725,-0.06431875685884043,-0.23968565119258048,0.028724605693805676,0.0202845123158952,0.049009118009700876,-2.0612865823943505e-08
0.73,-0.0655092510289754,-0.23650379402651173,0.02796702229446734,0.02104209423747312,0.049009116531940455,-2.209062624491942e-08
0.735,-0.06668369061955413,-0.23326405844410172,0.027206060480906652,0.021803053960235762,0.049009114441142414,-2.4181424286562336e-08
0.74,-0.06784178877888535,-0.229967241260682,0.02644246602652436,0.022566645977859057,0.04900911200438342,-2.661818328253407e-08
0.745,-0.06898326259744328,-0.22661415372655863,0.025676987334602174,0.023332122262679257,0.04900910959728143,-2.9025285272488155e-08
