t,x,x_dot,theta,theta_dot,E,E_minus_E0
0.0,0.0,0.0,2.941592653589793,0.0,-1.1654671877173548,0.0
0.0033333333333333335,-0.0003240291523495261,-0.19442808012322954,2.940568981689882,-0.6145769057487633,-1.155742127066862,0.009725060650492834
0.006666666666666667,-0.0012961503009252502,-0.3888440880994325,2.937493655416387,-1.230909807779295,-1.1265487159735272,0.038918471743827565
0.01,-0.0029157993732997186,-0.5830693733487902,2.932364002113,-1.8479323481753926,-1.0778787968598715,0.08758839085748327
0.013333333333333334,-0.0051824870494378925,-0.7769636909687231,2.9251775672074785,-2.4646799910321517,-1.0097306440966471,0.15573654362070766
0.016666666666666666,-0.008095116934054472,-0.9703745520310051,2.91593556478209,-3.080119162630475,-0.9221094220597778,0.24335776565757705
0.02,-0.011651739810173896,-1.1631169240276478,2.9046441740010085,-3.6930823266582773,-0.8150376886495062,0.3504294990678486
0.023333333333333334,-0.01584955363913033,-1.3549732308709022,2.8913145391103092,-4.302267984210481,-0.6885623555693425,0.47690483214801227
0.02666666666666667,-0.02068490356056767,-1.545693352893255,2.8759627694379715,-4.906240673789018,-0.5427607848382919,0.6227064028790629
0.030000000000000002,-0.026153281892439532,-1.734994626847433,2.8586099393938795,-5.503430971302826,-0.37774669388207216,0.7877204938352826
0.03333333333333333,-0.03224932813100928,-1.9225618459063987,2.839282088469819,-6.0921354900678555,-0.19367668903043356,0.9717904986869212
0.03666666666666667,-0.038966828950850005,-2.108047259663355,2.818010221239481,-6.670516880807067,0.00924162173923837,1.1747088094565932
0.04,-0.046298718204844505,-2.2910705741317394,2.79483030735846,-7.236603831650424,0.2307388849496803,1.3962060726670351
0.043333333333333335,-0.054170370907699036,-2.394404618947771,2.769991121731172,-7.549001063210337,0.3719712519306104,1.5374384396479652
0.04666666666666667,-0.06218350536393981,-2.4195308874082735,2.744750779653189,-7.613668636004823,0.4198051715351556,1.5852723592525104
0.05,-0.07030575843328397,-2.4546540428044463,2.719221289702915,-7.706006013373924,0.48263751583857295,1.6481047035559278
0.05333333333333334,-0.07855356813696684,-2.494901805435222,2.693363976058435,-7.810406059293897,0.5548769278306189,1.7203441155479737
0.05666666666666667,-0.08694380179587999,-2.540058146608071,2.6671399677194714,-7.92579526415424,0.6368468802795246,1.8023140679968794
0.060000000000000005,-0.09549243900241988,-2.5898673652351656,2.640514540819236,-8.050953631126744,0.7288586583704841,1.894325846087839
0.06333333333333334,-0.10421374133654744,-2.643916801833664,2.613459205044422,-8.184306855797137,0.8310260284405953,1.99649321615795
0.06666666666666667,-0.11312190048727876,-2.701800232069295,2.5859474062168424,-8.324153860487804,0.9434693998145611,2.108936587531916
0.07,-0.12223767785724779,-2.766046584520213,2.557937630450425,-8.476604065241007,1.0708598267571057,2.2363270144744605
0.07333333333333333,-0.1315753992403169,-2.835795312099147,2.529407200176931,-8.638793942741637,1.2130255550767446,2.3784927427940996
0.07666666666666667,-0.14114182054829524,-2.9062363528668422,2.500355210876727,-8.797389825917808,1.3631312878888127,2.5285984756061675
0.08,-0.15093461149491702,-2.969228745974674,2.4708065659168104,-8.930288759083414,1.5075371211808606,2.673004308898215
0.08333333333333334,-0.16092481592347155,-3.02360591705323,2.440857550521739,-9.034869587609682,1.6430643141389376,2.8085315018562924
0.08666666666666667,-0.17108401527417674,-3.070652080693328,2.410600509132756,-9.115322529763587,1.77076499041485,2.9362321781322045
0.09000000000000001,-0.181388040753421,-3.1106053412635974,2.3801138481030337,-9.17302150789204,1.8900260323823255,3.05549322009968
0.09333333333333334,-0.19181351592605372,-3.1436317079211227,2.349471333445479,-9.209209237925593,2.0001630915927686,3.1656302793101236
0.09666666666666668,-0.20233681080532326,-3.169107153473862,2.3187442495703317,-9.22341247835402,2.099026607313526,3.264493795030881
0.1,-0.2129251941868981,-3.1834363910815595,2.2880202076581484,-9.20873478635656,2.178584000055636,3.3440511877729904
0.10333333333333335,-0.22354780258110887,-3.1886682370398014,2.2573801815437906,-9.170880830251614,2.241672276459619,3.407139464176974
0.10666666666666667,-0.23417840663559814,-3.1871385873285645,2.2268913377986976,-9.11611005437433,2.2920822904165847,3.4575494781339398
0.11,-0.24479463428844528,-3.180359909852293,2.196608535878741,-9.048768391993793,2.332262555653652,3.497729743371007
0.11333333333333334,-0.25537797076816643,-3.169021244439903,2.1665743281242245,-8.971288265313019,2.3631835763140154,3.5286507640313705
0.11666666666666667,-0.26591375859371413,-3.1529882028447767,2.136818959759888,-8.884188585468955,2.384245476913426,3.549712664630781
0.12000000000000001,-0.2763903523229417,-3.1336716373803335,2.1073630101751983,-8.790509368559134,2.398047548275616,3.563514735992971
0.12333333333333334,-0.28681012925352384,-3.118821963406833,2.0782065903339553,-8.704030164774759,2.420250134188578,3.585717321905933
0.12666666666666668,-0.29719175594186453,-3.1094374104747216,2.049323257492329,-8.625288279891022,2.4529509090741533,3.6184180967915083
0.13,-0.3075510000132933,-3.1050780997893277,2.020691673547802,-8.552824352786281,2.4953829795687885,3.660850167286143
0.13333333333333333,-0.3178998486059587,-3.104499378176743,1.992297239397679,-8.48441388969031,2.545137774520793,3.710604962238148
0.1366666666666667,-0.32824650837082864,-3.105651818083819,1.9641320949390875,-8.417067264184295,2.5980709831029976,3.763538170820352
0.14,-0.3385954054716896,-3.1056812175781685,1.9361951190689797,-8.347029717200838,2.648200343451454,3.813667531168809
0.14333333333333334,-0.3489439528201407,-3.103502478819873,1.9084950055820415,-8.27289106584196,2.693066209585628,3.858533397302983
0.14666666666666667,-0.3592852306595433,-3.1015170685629463,1.8810438248764878,-8.197842214950066,2.7375979652133418,3.9030651529306963
0.15000000000000002,-0.3696184198576814,-3.0990561763501017,1.8538456002373136,-8.121464732984633,2.78033165719623,3.9457988449135852
0.15333333333333335,-0.37994239887746595,-3.0957692287148912,1.8269042593008133,-8.043560362183795,2.8204412282591074,3.9859084159764624
0.15666666666666668,-0.3902555951036972,-3.091718081774349,1.8002238009017917,-7.964262328446692,2.857968802118972,4.023435989836327
0.16,-0.4005559848430639,-3.087377021228988,1.7738082950735634,-7.884035341333459,2.8938539469121114,4.059321134629466
0.16333333333333333,-0.41084134293401764,-3.0834525938425243,1.7476616604270139,-7.803563688475381,2.929573392640807,4.0950405803581615
0.16666666666666669,-0.421111897299423,-3.078771484046632,1.7217850120536073,-7.72233125642835,2.9625962399358414,4.1280634276531964
0.17,-0.4313659237072458,-3.073273287292184,1.6961802900790401,-7.6403505170689305,2.99273476854467,4.158201956262025
0.17333333333333334,-0.4416012261466088,-3.067330037680209,1.6708494705025987,-7.557924257445157,3.020748915471227,4.186216103188582
0.17666666666666667,-0.451816038266728,-3.061143884233387,1.6457938291141316,-7.475296028791593,3.04705557945618,4.212522767173535
0.18000000000000002,-0.46200902337691296,-3.0547470908960546,1.6210139414940483,-7.392650146529329,3.0717194516902944,4.237186639407649
0.18333333333333335,-0.4721792744465661,-3.0480020365342044,1.5965096830133199,-7.310111690265984,3.0944453952267206,4.259912582944075
0.18666666666666668,-0.4823263137402465,-3.0406008403081364,1.57228022894293,-7.227746522680124,3.114571493286902,4.280038681004257
0.19,-0.49244604741482745,-3.030539361276295,1.5483245908396264,-7.145769552517514,3.127838831883906,4.2933060196012605
0.19333333333333336,-0.5025252110631896,-3.01621591992671,1.5246407136544606,-7.064841600269092,3.1309019871450743,4.296369174862429
0.19666666666666668,-0.5125496737518291,-2.9976419448541556,1.5012239114418393,-6.985664351768732,3.1239053390380795,4.289372526755434
0.2,-0.5225052013802463,-2.9748118605664002,1.4780671270627102,-6.908944859063175,3.1070177900552003,4.272484977772555
0.20333333333333334,-0.5323774566809438,-2.947703087484205,1.455160932184564,-6.835395540412026,3.080431773263659,4.245898960981013
0.2066666666666667,-0.5421519992194284,-2.916276041941322,1.432493527281433,-6.765734180287761,3.044362880742019,4.2098300684593735
0.21000000000000002,-0.5518142853942093,-2.880474136184498,1.4100507416338923,-6.700683929375721,2.999050144006872,4.164517331724227
0.21333333333333335,-0.5613496684367998,-2.840223778373471,1.387816033329059,-6.640973304574117,2.9447569969677927,4.110224184685148
0.21666666666666667,-0.5707433984117161,-2.7954343725809725,1.3657704892605917,-6.5873361889940245,2.8817729504138905,4.0472401381312455
0.22,-0.5799816569769337,-2.7477674193090245,1.3438933101096169,-6.539265413240481,2.813780101459691,3.979247289177046
0.22333333333333336,-0.5890634478859256,-2.7018843868522517,1.3221713654084444,-6.493615180150224,2.749843083866514,3.915310271583869
0.22666666666666668,-0.5979961643501488,-2.6581156654305955,1.3005989788683878,-6.449792318676072,2.6904320452695925,3.855899232986947
0.23,-0.6067872420443322,-2.6165247226676773,1.2791713450516553,-6.407402737876697,2.6354991212602745,3.800966308977629
0.23333333333333334,-0.6154440247319626,-2.5771541945663854,1.2578843862433697,-6.366091165458338,2.58495975012554,3.750426937842895
0.2366666666666667,-0.6239737642652844,-2.5400258855088715,1.23673475245157,-6.325541147774801,2.538696355301291,3.7041635430186455
0.24000000000000002,-0.6323836205852997,-2.505140768256556,1.2157198214072111,-6.285475049827458,2.49656151568908,3.6620287034064347
0.24333333333333335,-0.6406806617217686,-2.4724789839501233,1.194837698564163,-6.245654055265247,2.4583806199749634,3.623847807692318
0.24666666666666667,-0.6488718637932087,-2.4419998421095226,1.174087217099212,-6.205878166384672,2.4239540136892694,3.5894212014066245
0.25,-0.6569641110068956,-2.4136418206339694,1.1534679379120591,-6.165986204129805,2.3930586595809795,3.558525847298334
0.25333333333333335,-0.6649641956588626,-2.3873225658019455,1.1329801496253218,-6.125855808092281,2.365449342983613,3.530916530700968
0.2566666666666667,-0.6728788181339007,-2.362938892271197,1.1126248685845326,-6.085403436511305,2.3408594642553515,3.5063266519727065
0.26,-0.6807145869055586,-2.3403667830787374,1.0924038388581407,-6.044584366273647,2.319001470120313,3.4844686578376676
0.26333333333333336,-0.6884780185361432,-2.3194613896408436,1.0723195322375092,-6.003392692913643,2.299566984859018,3.465034172576373
0.26666666666666666,-0.6961755376767186,-2.30005703175306,1.0523751482369186,-5.961861330613194,2.282226710836362,3.447693898553717
0.27,-0.7038209259901941,-2.2880466053027826,1.032587480053773,-5.909533477151027,2.2755838433432745,3.4410510310606295
0.2733333333333334,-0.7114357191442323,-2.282815655313943,1.0129872395200445,-5.847349020312139,2.278564901201121,3.444032088918476
0.27666666666666667,-0.7190296275218632,-2.2762269806915643,0.9935854756948908,-5.789202651096492,2.279099598123446,3.4445667858408004
0.28,-0.7266041327771343,-2.2670043092448067,0.9743800363848066,-5.736901496335647,2.2752711429028567,3.4407383306202117
0.2833333333333333,-0.7341527675760894,-2.2605147082603203,0.9553560520562048,-5.680575126488159,2.274905481110948,3.440372668828303
0.2866666666666667,-0.7416756558959853,-2.25318900560415,0.9365097664873976,-5.62743516758994,2.272960407537934,3.4384275952552885
0.29000000000000004,-0.7491694188570678,-2.2429243450620686,0.9178288188002659,-5.581495396430936,2.2664753569123692,3.431942544629724
0.29333333333333333,-0.756630173426462,-2.2330426310161373,0.8993010031024591,-5.536337232054166,2.260228175238158,3.425695362955513
0.2966666666666667,-0.7640612686458095,-2.2257186850558495,0.8809283832712451,-5.487445698818797,2.2572392311428,3.4227064188601544
0.30000000000000004,-0.7714725412199852,-2.2212245273601097,0.8627259811565817,-5.4339174791227896,2.257793314559297,3.4232605022766522
0.30333333333333334,-0.7788691619968292,-2.21638716331117,0.8447004717289835,-5.382440504635503,2.2575124454027256,3.4229796331200806
0.3066666666666667,-0.7862515444995786,-2.2125168769026176,0.8268487273074393,-5.33001584369876,2.2581725691685834,3.4236397568859385
0.31,-0.7936216174318488,-2.2100386701445776,0.8091709025448836,-5.275705850214299,2.260357493543824,3.4258246812611786
0.31333333333333335,-0.8009828796102987,-2.20758108158336,0.7916706966927337,-5.222654087757214,2.2622388169979497,3.4277060047153043
0.3166666666666667,-0.8083374785114015,-2.205659444343283,0.7743488455231098,-5.16949521765447,2.2644837684274144,3.4299509561447694
0.32,-0.815687824593751,-2.205305423186686,0.7572071814274938,-5.1138442285787935,2.2684762487422727,3.4339434364596277
0.32333333333333336,-0.8230381945778381,-2.205257142909867,0.7402519611301318,-5.058656679885565,2.2725498968000797,3.4380170845174343
0.32666666666666666,-0.830391203845688,-2.2058776986542994,0.7234857472019769,-5.002911794632342,2.27716543071187,3.442632618429225
0.33,-0.8377484752702191,-2.2082985417791283,0.7069090277722697,-4.943767421573596,2.283800859969151,3.4492680476865054
0.33333333333333337,-0.845113379080987,-2.210312153826816,0.690526588043882,-4.886750562248064,2.2896066542211444,3.455073841938499
0.33666666666666667,-0.8524859730912343,-2.212812246237627,0.6743350197940234,-4.8294989496037894,2.2957341366038406,3.4612013243211956
0.34,-0.8598667840030638,-2.2160622293599754,0.6583321689077115,-4.771362739624391,2.302543417902276,3.4680106056196305
0.3433333333333334,-0.8672574982443655,-2.2188869070245643,0.6425188320984325,-4.715452744777449,2.308553268997398,3.4740204567147526
0.3466666666666667,-0.874658475154314,-2.222029383917591,0.6268923395568538,-4.659715377588348,2.314707147106236,3.480174334823591
0.35000000000000003,-0.8820708876002203,-2.2260059396740868,0.6114523710097063,-4.602821166045474,2.3216843468731474,3.4871515345905024
0.35333333333333333,-0.8894970385183348,-2.2298878548565257,0.596201608257927,-4.547259681115527,2.3283189244358016,3.493786112153156
0.3566666666666667,-0.896937992568975,-2.2340538755580055,0.5811394929962379,-4.491926818787121,2.3350877425100927,3.5005549302274472
0.36000000000000004,-0.904394150833818,-2.2394335262640777,0.5662637974799762,-4.434242509052181,2.343172636471513,3.508639824188868
0.36333333333333334,-0.911867379308756,-2.2441557905239247,0.5515762858991361,-4.379440147622085,2.350245803592716,3.515712991310071
0.3666666666666667,-0.9193567891388436,-2.24903281424048,0.5370710503974568,-4.325186481924127,2.357326400239037,3.522793587956392
0.37000000000000005,-0.9268619231883473,-2.2543157686465025,0.5227433951990652,-4.270798205664322,2.3647487013351935,3.530215889052548
0.37333333333333335,-0.934383304254277,-2.2590368808919576,0.508591348919595,-4.219093044670661,2.371330035114006,3.5367972228313604
0.3766666666666667,-0.9419205658755146,-2.2635829676176225,0.49461033271125615,-4.168909028708775,2.3775527714721463,3.5430199591895013
0.38,-0.9494736771050188,-2.2687802669366746,0.4807968436204014,-4.117875791866706,2.3844594621383033,3.5499266498556583
0.38333333333333336,-0.9570440763206898,-2.273695987328861,0.4671516213306803,-4.068731296943161,2.390909144636751,3.556376332354106
0.3866666666666667,-0.9646321487772247,-2.2785709470862647,0.4536723528661837,-4.0207260849832736,2.397201391384729,3.562668579102084
0.39,-0.9722375288592003,-2.2844234041504516,0.4403545700901849,-3.9708152034123794,2.4046000342073666,3.570067221924721
0.39333333333333337,-0.9798614077711856,-2.2895909242301133,0.42719841914221407,-3.924009133320966,2.4110795366987814,3.5765467244161364
0.39666666666666667,-0.9875025966764152,-2.2946383655162896,0.41419687270615274,-3.8785728929527186,2.417336266202494,3.5828034539198486
0.4,-0.9951600465833166,-2.2999532930462316,0.40134331971729653,-3.833351769547706,2.4238607345371372,3.5893279222544923
0.4033333333333334,-1.0028336608690953,-2.3047742488787324,0.3886339909332439,-3.7907041185935713,2.4297380296491857,3.5952052173665408
0.4066666666666667,-1.0105229606490544,-2.3090284922914455,0.3760638872722807,-3.750835615351534,2.4348833219360078,3.600350509653363
0.41000000000000003,-1.0182271774702247,-2.3139086082711007,0.36362717844992426,-3.7100849623588528,2.4407640537476873,3.606231241465042
0.4133333333333334,-1.0259473992964432,-2.3184800405200643,0.3513237407368966,-3.6713553914891515,2.446251347267346,3.6117185349847007
0.4166666666666667,-1.033683777996608,-2.3228627039399945,0.33915055886556483,-3.6342517984408387,2.4514938433508853,3.6169610310682403
0.42000000000000004,-1.0414356729799616,-2.328041937930725,0.3271021789767968,-3.595680237198113,2.4576967435568124,3.623163931274167
0.42333333333333334,-1.0492038845713687,-2.3326152639961046,0.31517765674305415,-3.5600705384664493,2.4631691893222283,3.628636377039583
0.4266666666666667,-1.0569872374079616,-2.336961760114248,0.3033697921347135,-3.5262088330143455,2.4683742078406845,3.633841395558039
0.43000000000000005,-1.0647845467064332,-2.341493306480902,0.29167134962558594,-3.4928044175055852,2.473821881928441,3.6392890696457956
0.43333333333333335,-1.0725955276586832,-2.345573093718003,0.28007791533809684,-3.4619050288889284,2.4787516726714163,3.6442188603887713
0.4366666666666667,-1.0804196512952249,-2.3490816101002228,0.2685842526857083,-3.4338844194352234,2.4830221681512112,3.6484893558685663
0.44,-1.0882560843860853,-2.3531072073189288,0.257184179852892,-3.4052674729088985,2.487958133390078,3.6534253211074326
0.44333333333333336,-1.0961056610019417,-2.3568525479123306,0.2458768482762413,-3.378619273621304,2.4926019435987103,3.658069131316065
0.4466666666666667,-1.103968419159102,-2.3604015450612015,0.23465884926740077,-3.353658477817283,2.4970572826123,3.6625244703296547
0.45,-1.1118437100075957,-2.364577815409076,0.22352456976502838,-3.3277191710703007,2.5023240441293995,3.6677912318467545
0.45333333333333337,-1.1197321035520356,-2.368240799656364,0.21247234015021746,-3.30451048604052,2.5070331075339087,3.6725002952512638
0.4566666666666667,-1.12763258464858,-2.3716787969856177,0.2014953161485225,-3.2830892270069016,2.5115349404953555,3.6770021282127106
0.46,-1.1355441042637848,-2.3752505972510676,0.19058653361059202,-3.2622964346899783,2.516268994723199,3.681736182440554
0.4633333333333334,-1.1434663298506995,-2.3785029768764128,0.17974134348479348,-3.24362507311902,2.520695317438939,3.686162505156294
0.4666666666666667,-1.1514002584379857,-2.3818626594410284,0.16895942853883592,-3.2256596917031812,2.525327238593359,3.690794426310714
0.47000000000000003,-1.159345917042344,-2.385273609273992,0.15823738177274863,-3.2086011097879026,2.5301044867026623,3.695571674420017
0.4733333333333334,-1.167294333649634,-2.38384990390829,0.1475420386012862,-3.2085905137573953,2.529161529083988,3.6946287168013425
0.4766666666666667,-1.17522796477355,-2.3749869398465426,0.13681160409545617,-3.234320101729893,2.519426014736394,3.6848932024537486
0.48000000000000004,-1.1831207875324392,-2.358626490802437,0.125955950290291,-3.286161299747811,2.5009839739354116,3.666451161652766
0.48333333333333334,-1.19094650003826,-2.3356378112917393,0.11488344339195325,-3.3614441213668784,2.475096950118677,3.640564137836032
0.4866666666666667,-1.1986843528589606,-2.305862487436835,0.10352010205035068,-3.460849624639936,2.4418482331660196,3.607315420883374
0.49000000000000005,-1.2063116409738632,-2.269320161605035,0.09178497480466408,-3.584486569598403,2.4016006809166193,3.5670678686339743
0.49333333333333335,-1.2138055973880872,-2.2259646388816554,0.07959629631182227,-3.7326849532153985,2.3547054413556716,3.520172629073026
0.4966666666666667,-1.221143393132551,-2.175683887070018,0.06687148734650161,-3.9059960094057518,2.3015089275068266,3.466976115224181
0.5,-1.2283020620335294,-2.1183537164563755,0.05352693826444025,-4.105010770686728,2.2424195007496435,3.4078866884669985
0.5033333333333334,-1.2352582483313004,-2.054103349609523,0.03947717106258142,-4.329475927380287,2.178185591908835,3.34365277962619
