t,x,x_dot,theta,theta_dot
0.0,0.0,0.0,0.15,0.0
0.0033333333333333335,0.0002171224205348633,0.13029401487797132,0.1493106495624606,-0.413953341807366
0.006666666666666667,0.00086879671599516,0.26074093162500944,0.14723777847455266,-0.8301858176559846
0.01,0.0019579238369308036,0.3931208698728328,0.1437654951383053,-1.2548273715116673
0.013333333333333334,0.0034851338432714566,0.5220051107291183,0.13888444701616365,-1.6702050011853529
0.016666666666666666,0.005408332336843581,0.6284621856091932,0.13272594324875867,-2.0138521380345784
0.02,0.007645663316542261,0.7080526879911077,0.12555293827674494,-2.270867058422734
0.023333333333333334,0.010107106569074245,0.7653336917235803,0.1176562217395084,-2.455934061242969
0.02666666666666667,0.012725775753709031,0.8027877206210609,0.10925147035294819,-2.5769668830025974
0.030000000000000002,0.01544024281804113,0.8232270172244408,0.10053716973770364,-2.6429855103694204
0.03333333333333333,0.018197696689702836,0.8292311078338737,0.09168419254659414,-2.662280794716195
0.03666666666666667,0.020953934858555186,0.8231570944036053,0.08283569861875054,-2.642445851898655
0.04,0.023673467509210417,0.8071320677713301,0.07410667554322298,-2.5903488644724986
0.043333333333333335,0.026326368239175207,0.783069356355907,0.06559412620640392,-2.5121824007568
0.04666666666666667,0.02888808350288693,0.7526698885814197,0.05737768527653383,-2.4134676481513586
0.05,0.03133934326989844,0.7174275204195942,0.04951989442277314,-2.2990697789631653
0.05333333333333334,0.03366621934449063,0.6786566287466623,0.04206581708944834,-2.1732672150765677
0.05666666666666667,0.035860007700445784,0.6374655729851952,0.03504346941208463,-2.0396721747341524
0.060000000000000005,0.03791453498885743,0.5948167800862266,0.02847263777356783,-1.9014240980418395
0.06333333333333334,0.039825876329637556,0.5515364410943637,0.02236578772118352,-1.7612192857779012
0.06666666666666667,0.04159236299404207,0.5083154924742812,0.01672803734295467,-1.6213139566193302
0.07,0.043215131968298674,0.4657174949924011,0.011555325118611206,-1.483546071765054
0.07333333333333333,0.04469776533745989,0.42417726109342324,0.006835604817431068,-1.349330958646662
0.07666666666666667,0.04604460256522804,0.38405029424025533,0.002554383149564028,-1.2198245076256258
0.08,0.0472605871302291,0.34562211730297543,-0.001304782596324914,-1.0959533091512599
0.08333333333333334,0.04835129734266637,0.30910859825035486,-0.004760385867928957,-0.9784157067861495
0.08666666666666667,0.049323460904270526,0.274651504516134,-0.0078346564016891,-0.8676670409809454
0.09000000000000001,0.05018444642865767,0.24232951329150038,-0.010551889973804233,-0.7639561021915069
0.09333333333333334,0.050941513410603004,0.21218897956242444,-0.012935998198022837,-0.6674263206368081
0.09666666666666668,0.051601792125437876,0.1842464887992655,-0.015010443699063049,-0.5781241383736944
0.1,0.052172362802637054,0.15848833114488511,-0.016798500158814726,-0.49599726566730706
0.10333333333333335,0.05266058676485654,0.1348624132266767,-0.018324335036600175,-0.42086823339616264
0.10666666666666667,0.05307361861234169,0.11329551447883082,-0.019611415882893342,-0.3524910766823655
0.11,0.05341819691053567,0.09370713196645795,-0.020681831507761803,-0.2905966476313179
0.11333333333333334,0.05370064460487613,0.07600965695735697,-0.02155629347245268,-0.23489319174432594
0.11666666666666667,0.05392698861147189,0.060105684962388946,-0.022254528322390436,-0.18505746966589892
0.12000000000000001,0.054103135401486785,0.04588167045519523,-0.022795851514177984,-0.1407139650994757
0.12333333333333334,0.05423455816889573,0.03322295708420747,-0.023198148569403537,-0.10148408781652124
0.12666666666666668,0.05432629360943816,0.02201823392783505,-0.023477868354162917,-0.0670006459139994
0.13,0.05438294238828091,0.012159534507882135,-0.02365002462117856,-0.03690784203151881
0.13333333333333333,0.05440877231101191,0.0035388149083254213,-0.02372853360293958,-0.010850023057039759
0.1366666666666667,0.05440777031559148,-0.003954578421136005,-0.023726383699707344,0.011536620442030625
0.14,0.0543835332433748,-0.01042525157501284,-0.023655282347440514,0.030595800577000704
0.14333333333333334,0.05433931065047731,-0.015971303419402793,-0.023525797624991615,0.046649695669048516
0.14666666666666667,0.054278008027796046,-0.020684444149371463,-0.02334736877705204,0.05999933930933218
0.15000000000000002,0.05420225522696231,-0.0246531591406643,-0.02312852934579339,0.07093498495564021
0.15333333333333335,0.05411439050333297,-0.027961363392549666,-0.022876855687119283,0.07973172059995587
0.15666666666666668,0.054016489273756414,-0.03068624752561119,-0.022599063470481327,0.08664250062407924
0.16,0.05391038211496936,-0.03289858744391453,-0.022301066770782703,0.09189917271703776
0.16333333333333333,0.05379768293190154,-0.034663264114028355,-0.021988070504576376,0.09571419739084377
0.16666666666666669,0.05367977154846813,-0.03604069030518847,-0.021664511905184806,0.09828526841574863
0.17,0.05355781287974256,-0.037085984641497746,-0.02133412436167606,0.09979264865885054
0.17333333333333334,0.05343283098576429,-0.03784892247542444,-0.021000181553961317,0.10039908857965218
0.17666666666666667,0.05330570955467915,-0.03837393875887374,-0.020665499043054734,0.10024983607335651
0.18000000000000002,0.05317719190273935,-0.038700128043187725,-0.020332434271073438,0.09947263647086667
0.18333333333333335,0.05304790095653058,-0.038862409635775585,-0.0200029514916111,0.0981815395053756
0.18666666666666668,0.0529183260647533,-0.038893192445879986,-0.019678576921149334,0.09648229428428272
0.19,0.05278880938930555,-0.03881957073509054,-0.01936035613233371,0.0944632230163733
0.19333333333333336,0.05265964035390639,-0.03866560646749093,-0.019049163579781703,0.09220273698969515
0.19666666666666668,0.05253105847249904,-0.038452434879228975,-0.01874571183910103,0.08976968258701615
0.2,0.052403253349250827,-0.038198264478516576,-0.018450551606889652,0.08722334128582417
0.20333333333333334,0.05227636467855321,-0.037918377045629774,-0.018164071700735758,0.08461342965832712
0.2066666666666667,0.05215047526170374,-0.03762605245446023,-0.017886475285102992,0.08198309716733614
0.21000000000000002,0.05202557879099883,-0.03733201706748659,-0.01761767408540267,0.07936709838628069
0.21333333333333335,0.051901637931963285,-0.03704445000371045,-0.01735747988508526,0.07679187567463511
0.21666666666666667,0.05177860917423117,-0.03677039252475687,-0.017105685324551128,0.07428016604476276
0.22,0.05165644283922393,-0.03651574941509513,-0.016862063925351306,0.0718510056554934
0.22333333333333336,0.05153508308015042,-0.03628528898203875,-0.016626370090187477,0.06951972981212336
0.22666666666666668,0.05141446740374617,-0.036082650495374693,-0.01639833752010226,0.06729799664811759
0.23,0.051294500651334285,-0.03591026286841959,-0.016177593492554772,0.06519349528509019
0.23333333333333334,0.05117505921236227,-0.03576893392358021,-0.015963673079687175,0.06320861480052124
0.2366666666666667,0.05105602716250736,-0.0356589598357384,-0.015756137410490114,0.06134408901973778
0.24000000000000002,0.05093729631999331,-0.03558038110859223,-0.015554573651855223,0.05959982874680157
0.24333333333333335,0.050818766245590424,-0.03553298257465592,-0.015358595008575133,0.05797492176450898
0.24666666666666667,0.05070034424261551,-0.035516293395259906,-0.015167840723343472,0.05646763283439108
0.25,0.05058194231941031,-0.03552955325013439,-0.014981966088806796,0.055075290613398255
0.25333333333333335,0.050463456690390485,-0.035571226958148766,-0.014800575248932414,0.053792688172082416
0.2566666666666667,0.05034478735779559,-0.035639315177936545,-0.014623285513001287,0.05261311350140445
0.26,0.050225844502117416,-0.03573190385347487,-0.014449747985563283,0.051530142665748326
0.26333333333333336,0.050106547709070484,-0.03584718032641564,-0.01427964500478229,0.050537691391696254
0.26666666666666666,0.049986825969592016,-0.03598343333608547,-0.014112690142436244,0.04963001506802879
0.27,0.04986661767984194,-0.0361390530194857,-0.013948628203917098,0.0488017087457247
0.2733333333333334,0.04974586861238209,-0.03631248665249069,-0.013787228573995298,0.04804756113361518
0.27666666666666667,0.04962451831700866,-0.03650179086761264,-0.013628240735957194,0.04736108455890848
0.28,0.04950251438562347,-0.03670493985422849,-0.013471441060545847,0.046735531826692135
0.2833333333333333,0.04937981185653591,-0.036920089188400985,-0.013316630627757845,0.04616475348736394
0.2866666666666667,0.04925637198744175,-0.037145567310879195,-0.013163631187606373,0.04564316886177832
0.29000000000000004,0.04913216225542315,-0.03737987552709847,-0.013012285160121238,0.045165766041246426
0.29333333333333333,0.04900715635694867,-0.03762168800718045,-0.012862455635348845,0.04472810188753605
0.2966666666666667,0.04888133420787325,-0.03786985178593312,-0.012714026373352207,0.04432630203287167
0.30000000000000004,0.048754679141619746,-0.038123298750457765,-0.012566892634972269,0.043956771809829105
0.30333333333333334,0.04862717139590149,-0.03838070099839966,-0.012420939981103822,0.04361506890481813
0.3066666666666667,0.048498801165212053,-0.03864089678087406,-0.012276086974519198,0.043297301825159104
0.31,0.04836956170172993,-0.038902856611380515,-0.012132262451681409,0.043000012585568216
0.31333333333333335,0.04823944856764403,-0.03916566678932446,-0.011989403070151,0.04272012236220089
0.3166666666666667,0.048108459635153755,-0.039428529400017245,-0.011847453308586078,0.04245493149265175
0.32,0.047976595086468905,-0.039690762314676074,-0.011706365466742285,0.042202119475954696
0.32333333333333336,0.047843857413809775,-0.03995179919042408,-0.011566099665472812,0.04195974497258283
0.32666666666666666,0.047710251419407095,-0.04021118947029028,-0.0114266238467284,0.04172624580444849
0.33,0.047575783760400794,-0.04046858586303236,-0.011287912282260629,0.041500397774095324
0.33333333333333337,0.047440452739064214,-0.04072337953375446,-0.011149912185616435,0.04128011791194912
0.33666666666666667,0.04730426895047655,-0.040975129060444704,-0.011012611482336846,0.04106388062909998
0.34,0.047167248975489746,-0.04122356968380503,-0.010876017993067222,0.040850741267388156
0.3433333333333334,0.04702940878462224,-0.041468465981034056,-0.010740137791348293,0.04063985023555798
0.3466666666666667,0.046890763738058866,-0.041709611865827105,-0.010604975203616153,0.04043045300925783
0.35000000000000003,0.046751328585650925,-0.04194683058837621,-0.010470532809202258,0.04022189013104014
0.35333333333333333,0.04661111746691615,-0.04217997473537008,-0.010336811440333436,0.0400135972103614
0.3566666666666667,0.046470143911038736,-0.04240892622999413,-0.01020381018213187,0.039805104923582156
0.36000000000000004,0.0463284208368693,-0.042633596331930465,-0.01007152637261511,0.039596039013967015
0.36333333333333334,0.046185960552924905,-0.0428539256373579,-0.00993995560269608,0.03938612029168465
0.3666666666666667,0.04604277475738908,-0.04306988407895193,-0.00980909171618306,0.039175164633807776
0.37000000000000005,0.045898874538111756,-0.04328147092588475,-0.009678926809779694,0.03896308298431316
0.37333333333333335,0.04575427037260935,-0.04348871478382527,-0.009549451233085,0.03874988135408165
0.3766666666666667,0.04560897235946713,-0.043691663472435076,-0.009420654358838152,0.03853562814918171
0.38,0.04546299830415402,-0.04389012668821181,-0.009292551429881316,0.03831962587339578
0.38333333333333336,0.045316367394870244,-0.04408409294750949,-0.009165162407675823,0.03810176020956072
0.3866666666666667,0.045169096161176606,-0.04427367148172145,-0.009038498680947192,0.03788230689941992
0.39,0.04502120054231054,-0.04445896026323583,-0.008912569978965446,0.03766150479371069
0.39333333333333337,0.04487269588718611,-0.04464004600543566,-0.00878738437154509,0.037439555852164304
0.39666666666666667,0.044723596954394006,-0.044817004162698786,-0.008662948269045142,0.03721662514350595
0.4,0.04457391791220153,-0.04498989893039791,-0.008539266422369102,0.03699284084545476
0.4033333333333334,0.044423672338552635,-0.04515878324490059,-0.008416341922964974,0.036768294244723804
0.4066666666666667,0.04427287322106789,-0.0453236987835692,-0.008294176202825262,0.03654303973702009
0.41000000000000003,0.04412153295704449,-0.04548467596476098,-0.008172769034486958,0.03631709482704456
0.4133333333333334,0.04396966335345626,-0.04564173394782802,-0.008052118531031558,0.036090440128492086
0.4166666666666667,0.04381727562695366,-0.04579488063311725,-0.00793222114608505,0.0358630193640515
0.42000000000000004,0.04366438040386375,-0.04594411266197043,-0.007813071673817918,0.03563473936540554
0.42333333333333334,0.043510990053330444,-0.04608946791741328,-0.007694670887278472,0.03540564322448119
0.4266666666666667,0.04335712080424882,-0.04623109376329146,-0.007577032467596614,0.03517613437304846
0.43000000000000005,0.04320278519667369,-0.04636907207397904,-0.00746015828677104,0.03494639976443601
0.43333333333333335,0.043047995420321866,-0.046503475567329346,-0.007344049336088973,0.03471659655837479
0.4366666666666667,0.04289276346254758,-0.046634370827282105,-0.007228706210566842,0.03448686210439474
0.44,0.042737101108342515,-0.046761818303863494,-0.007114129108950302,0.03425731394182484
0.44333333333333336,0.042581019940335814,-0.04688587231318614,-0.0070003178337142095,0.034028049799793056
0.4466666666666667,0.04242453133879404,-0.04700658103744907,-0.006887271791062642,0.0337991475972264
0.45,0.042267646481621235,-0.04712398652493777,-0.006774989990928888,0.033570665442850894
0.45333333333333337,0.042110376344358845,-0.04723812469002417,-0.0066634710469754485,0.033342641635191565
0.4566666666666667,0.041952731700185805,-0.04734902531316661,-0.006552713176594039,0.033115094662572474
0.46,0.041794723119918456,-0.04745671204090987,-0.0064427142009055895,0.032888023203116686
0.4633333333333334,0.041636360972010615,-0.04756120238588518,-0.006333471544760241,0.03266140612474629
0.4666666666666667,0.04147765542255352,-0.047662507726810195,-0.006224982236737349,0.03243520248518239
0.47000000000000003,0.041318616488309264,-0.047760635125366664,-0.006117243080507829,0.03220935749670206
0.4733333333333334,0.0411592560440394,-0.04785566353638537,-0.0060102571450494,0.031984052476148925
0.4766666666666667,0.04099958488002197,-0.0479476565049564,-0.0059040242604049605,0.03175941778781415
0.48000000000000004,0.04083961266824924,-0.04803664356483887,-0.005798540893483093,0.03153547235385662
0.48333333333333334,0.04067934904090674,-0.04812265360919665,-0.005693803630339238,0.03131223332790809
0.4866666666666667,0.04051880359037327,-0.048205714890598404,-0.005589809176175678,0.031089716095073182
0.49000000000000005,0.04035798586922089,-0.04828585502101755,-0.0054865543553415455,0.030867934271929368
0.49333333333333335,0.04019690539021493,-0.04836310097183227,-0.0053840361113328275,0.030646899706527002
0.4966666666666667,0.040035571626313965,-0.048437479073825514,-0.0052822515067923485,0.030426622478389294
0.5,0.03987399401066986,-0.048509015017185006,-0.005181197723509793,0.030207110898512322
0.5033333333333334,0.0397121819366277,-0.048577733851503234,-0.005080872062421683,0.02998837150936502
0.5066666666666667,0.03955014475772589,-0.04864365998577746,-0.0049812719436114015,0.029770409084889204
0.51,0.03938789178769606,-0.0487068171884097,-0.004882394906309171,0.02955322663049955
0.5133333333333334,0.0392254323004631,-0.04876722858720675,-0.004784238608892061,0.02933682538308358
0.5166666666666667,0.03906277553014519,-0.04882491666938017,-0.004686800828884,0.02912120481100171
0.52,0.03889993067105375,-0.04887990328154629,-0.0045900794629557574,0.028906362614087206
0.5233333333333333,0.03873690687769348,-0.0489322096297262,-0.004494072526924952,0.028692294723646195
0.5266666666666667,0.03857371326476232,-0.04898185627934576,-0.004398778155756046,0.028478995302457667
0.53,0.0384103589071515,-0.04902886315523561,-0.0043041946035603665,0.028266456744773502
0.5333333333333333,0.038246852839945486,-0.049073249541631135,-0.004210320243596072,0.028054669676318415
0.5366666666666667,0.03808320405842203,-0.04911503408217251,-0.004117153568268177,0.027843622954289996
0.54,0.037919421544086465,-0.049154262092127365,-0.004024693172966994,0.02763339252925256
0.5433333333333333,0.03775551386537842,-0.049191021022572605,-0.0039329363946329,0.027424191300928148
0.5466666666666667,0.03759148905058567,-0.04922531848273887,-0.003841879338336197,0.027215972246066936
0.55,0.03742735507726922,-0.04925715867989626,-0.003751518186143136,0.027008677581380116
0.5533333333333333,0.03726311988934631,-0.049286547399166894,-0.0036618492343394636,0.026802254979302033
0.5566666666666668,0.03709879139709046,-0.04931349200352482,-0.003572868893430433,0.026596657567990206
0.56,0.03693437747713148,-0.049338001433796075,-0.0034845736881408134,0.02639184393132536
0.5633333333333334,0.03676988597245543,-0.04936008620865866,-0.0033969602574148742,0.02618777810891136
0.5666666666666667,0.03660532469240465,-0.04937975842464255,-0.0033100253544163937,0.025984429596075272
0.5700000000000001,0.03644070141267774,-0.04939703175612969,-0.0032237658465286536,0.025781773343867317
0.5733333333333334,0.036276023875329584,-0.04941192145535399,-0.003138178715354452,0.025579789759060924
0.5766666666666667,0.03611129978877132,-0.049424444352401335,-0.0030532610567160865,0.025378464704152674
0.5800000000000001,0.03594653682777037,-0.04943461885520959,-0.0029690100806553607,0.025177789497362317
0.5833333333333334,0.03578174263345041,-0.049442464949568575,-0.002885423111433593,0.024977760912632818
0.5866666666666667,0.035616924813291415,-0.04944800419912008,-0.0028024975875316034,0.024778381179630278
0.5900000000000001,0.03545209094112958,-0.049451259745357884,-0.002720231061649715,0.024579657983743983
0.5933333333333334,0.03528724855715744,-0.04945225630762771,-0.0026386212007077697,0.024381604466086424
0.5966666666666667,0.03512240516792373,-0.049451020183127276,-0.002557665785845108,0.024184239223493238
0.6000000000000001,0.0349575682463335,-0.04944757924690626,-0.002477362712420575,0.023987586308523236
0.6033333333333334,0.03479274523164805,-0.04944196295186631,-0.002397709990012533,0.023791675229458437
0.6066666666666667,0.03462794352948496,-0.049434202328761036,-0.0023187057424188433,0.02359654095030401
0.61,0.03446317051181807,-0.04942432998619603,-0.0022403482076568766,0.023402223890788304
0.6133333333333334,0.03429843351697749,-0.049412380110628866,-0.0021626357379635076,0.023208769926362845
0.6166666666666667,0.034133739849649625,-0.04939838846636906,-0.0020855667997951273,0.023016230388202347
0.62,0.03396909678087712,-0.049382392395578116,-0.0020091399738276254,0.02282466206320469
0.6233333333333334,0.033804511548058885,-0.04936443081826951,-0.0019333539549563979,0.022634127193990924
0.6266666666666667,0.03363999135495014,-0.049344544232308676,-0.0018582075522963564,0.0224446934789053
0.63,0.03347554337166234,-0.04932277471341303,-0.0017836996891819118,0.02225643407201522
0.6333333333333334,0.03331117200695249,-0.049299073327411146,-0.0017098203185299612,0.022069123559510975
0.6366666666666667,0.033146880879694675,-0.04927335785718679,-0.0016365570310675455,0.021882427769379834
0.64,0.03298267704499552,-0.04924565987497982,-0.001563909097244467,0.021696386597388918
0.6433333333333334,0.03281856746088914,-0.049216010340836835,-0.0014918756676441782,0.02151103819962326
0.6466666666666667,0.03265455897444059,-0.049184439141767386,-0.0014204557266430488,0.021326417478942802
0.65,0.032490658321745886,-0.049150975091744015,-0.001349648092410353,0.021142556084982396
0.6533333333333333,0.032326872127932,-0.049115645931702236,-0.0012794514169082777,0.020959482414151787
0.6566666666666667,0.03216320690715682,-0.04907847832954053,-0.0012098641858919196,0.020777221609635636
0.66,0.031999669062609246,-0.049039497880120374,-0.0011408847189092921,0.02059579556139353
0.6633333333333333,0.031836264886509084,-0.04899872910526621,-0.0010725111693013138,0.020415222906159932
0.6666666666666667,0.031673000560107106,-0.04895619545376545,-0.0010047415242018132,0.020235519027444235
